实验仪器为布鲁克AFM，所用模式为peak force QNM in air，扫描范围（scan size）为50nm×50nm，压电陶瓷总位移为10000nm，下压力为100nN。
AFM探针型号为RTESPA-150，所测材料为二维cof薄膜，基底为铜网，此时将铜网放置在干净的硅片上，进行测试。以下数据为随着探针下压，探针所受力的变化。
    um         	nN
9.960953e+00	-9.168357e+00
9.921891e+00	-9.358374e+00
9.882828e+00	-9.548391e+00
9.843765e+00	-9.762162e+00
9.804702e+00	-9.928427e+00
9.765639e+00	-1.014220e+01
9.726577e+00	-1.028471e+01
9.687514e+00	-1.047473e+01
9.648451e+00	-1.066475e+01
9.609388e+00	-1.090227e+01
9.570325e+00	-1.104478e+01
9.531263e+00	-1.118729e+01
9.492200e+00	-1.144857e+01
9.453137e+00	-1.163859e+01
9.414074e+00	-1.182860e+01
9.375011e+00	-1.201862e+01
9.335949e+00	-1.220864e+01
9.296886e+00	-1.239866e+01
9.257823e+00	-1.261243e+01
9.218760e+00	-1.282620e+01
9.179697e+00	-1.301622e+01
9.140635e+00	-1.311122e+01
9.101572e+00	-1.332499e+01
9.062509e+00	-1.361002e+01
9.023446e+00	-1.375253e+01
8.984383e+00	-1.391880e+01
8.945321e+00	-1.422758e+01
8.906258e+00	-1.439384e+01
8.867195e+00	-1.456011e+01
8.828132e+00	-1.472638e+01
8.789069e+00	-1.486889e+01
8.750007e+00	-1.498765e+01
8.710944e+00	-1.517767e+01
8.671881e+00	-1.536769e+01
8.632818e+00	-1.562896e+01
8.593755e+00	-1.577147e+01
8.554693e+00	-1.596149e+01
8.515630e+00	-1.610400e+01
8.476567e+00	-1.627027e+01
8.437504e+00	-1.643654e+01
8.398441e+00	-1.667406e+01
8.359379e+00	-1.676907e+01
8.320316e+00	-1.684032e+01
8.281253e+00	-1.719661e+01
8.242190e+00	-1.748163e+01
8.203127e+00	-1.767165e+01
8.164065e+00	-1.783792e+01
8.125002e+00	-1.790917e+01
8.085939e+00	-1.805169e+01
8.046876e+00	-1.828921e+01
8.007813e+00	-1.843172e+01
7.968751e+00	-1.862174e+01
7.929688e+00	-1.862174e+01
7.890625e+00	-1.864549e+01
7.851562e+00	-1.876425e+01
7.812499e+00	-1.871675e+01
7.773437e+00	-1.876425e+01
7.734374e+00	-1.878800e+01
7.695311e+00	-1.871675e+01
7.656248e+00	-1.871675e+01
7.617186e+00	-1.876425e+01
7.578124e+00	-1.874050e+01
7.539061e+00	-1.866924e+01
7.499999e+00	-1.871675e+01
7.460937e+00	-1.874050e+01
7.421874e+00	-1.885926e+01
7.382812e+00	-1.878800e+01
7.343750e+00	-1.876425e+01
7.304687e+00	-1.876425e+01
7.265625e+00	-1.876425e+01
7.226563e+00	-1.874050e+01
7.187500e+00	-1.869300e+01
7.148438e+00	-1.866924e+01
7.109375e+00	-1.864549e+01
7.070313e+00	-1.874050e+01
7.031251e+00	-1.888301e+01
6.992188e+00	-1.888301e+01
6.953126e+00	-1.885926e+01
6.914064e+00	-1.881176e+01
6.875001e+00	-1.869300e+01
6.835939e+00	-1.874050e+01
6.796877e+00	-1.869300e+01
6.757814e+00	-1.876425e+01
6.718752e+00	-1.876425e+01
6.679690e+00	-1.876425e+01
6.640627e+00	-1.885926e+01
6.601565e+00	-1.883551e+01
6.562503e+00	-1.881176e+01
6.523440e+00	-1.885926e+01
6.484378e+00	-1.878800e+01
6.445316e+00	-1.878800e+01
6.406253e+00	-1.881176e+01
6.367191e+00	-1.881176e+01
6.328129e+00	-1.878800e+01
6.289066e+00	-1.874050e+01
6.250004e+00	-1.878800e+01
6.210942e+00	-1.895427e+01
6.171879e+00	-1.895427e+01
6.132817e+00	-1.890677e+01
6.093755e+00	-1.893052e+01
6.054692e+00	-1.885926e+01
6.015630e+00	-1.883551e+01
5.976568e+00	-1.874050e+01
5.937505e+00	-1.878800e+01
5.898443e+00	-1.874050e+01
5.859381e+00	-1.883551e+01
5.820318e+00	-1.895427e+01
5.781256e+00	-1.895427e+01
5.742193e+00	-1.897802e+01
5.703131e+00	-1.895427e+01
5.664069e+00	-1.893052e+01
5.625006e+00	-1.895427e+01
5.585944e+00	-1.890677e+01
5.546882e+00	-1.893052e+01
5.507819e+00	-1.900177e+01
5.468757e+00	-1.888301e+01
5.429695e+00	-1.895427e+01
5.390632e+00	-1.895427e+01
5.351570e+00	-1.895427e+01
5.312508e+00	-1.895427e+01
5.273445e+00	-1.897802e+01
5.234383e+00	-1.888301e+01
5.195321e+00	-1.885926e+01
5.156258e+00	-1.881176e+01
5.117196e+00	-1.885926e+01
5.078134e+00	-1.874050e+01
5.039071e+00	-1.881176e+01
5.000009e+00	-1.888301e+01
4.960947e+00	-1.885926e+01
4.921884e+00	-1.881176e+01
4.882822e+00	-1.885926e+01
4.843760e+00	-1.883551e+01
4.804697e+00	-1.881176e+01
4.765635e+00	-1.883551e+01
4.726573e+00	-1.883551e+01
4.687510e+00	-1.878800e+01
4.648448e+00	-1.883551e+01
4.609386e+00	-1.890677e+01
4.570323e+00	-1.895427e+01
4.531261e+00	-1.893052e+01
4.492199e+00	-1.888301e+01
4.453136e+00	-1.878800e+01
4.414074e+00	-1.876425e+01
4.375011e+00	-1.888301e+01
4.335949e+00	-1.890677e+01
4.296887e+00	-1.883551e+01
4.257824e+00	-1.878800e+01
4.218762e+00	-1.885926e+01
4.179700e+00	-1.888301e+01
4.140637e+00	-1.885926e+01
4.101575e+00	-1.885926e+01
4.062513e+00	-1.890677e+01
4.023450e+00	-1.885926e+01
3.984388e+00	-1.876425e+01
3.945326e+00	-1.871675e+01
3.906263e+00	-1.876425e+01
3.867201e+00	-1.874050e+01
3.828139e+00	-1.869300e+01
3.789076e+00	-1.878800e+01
3.750014e+00	-1.883551e+01
3.710951e+00	-1.878800e+01
3.671888e+00	-1.874050e+01
3.632826e+00	-1.874050e+01
3.593763e+00	-1.869300e+01
3.554701e+00	-1.874050e+01
3.515638e+00	-1.869300e+01
3.476576e+00	-1.869300e+01
3.437513e+00	-1.869300e+01
3.398450e+00	-1.883551e+01
3.359388e+00	-1.885926e+01
3.320325e+00	-1.883551e+01
3.281263e+00	-1.888301e+01
3.242200e+00	-1.881176e+01
3.203138e+00	-1.881176e+01
3.164075e+00	-1.876425e+01
3.125012e+00	-1.883551e+01
3.085950e+00	-1.871675e+01
3.046887e+00	-1.871675e+01
3.007825e+00	-1.866924e+01
2.968762e+00	-1.881176e+01
2.929700e+00	-1.876425e+01
2.890637e+00	-1.878800e+01
2.851574e+00	-1.881176e+01
2.812512e+00	-1.874050e+01
2.773449e+00	-1.871675e+01
2.734387e+00	-1.878800e+01
2.695324e+00	-1.883551e+01
2.656262e+00	-1.883551e+01
2.617199e+00	-1.869300e+01
2.578136e+00	-1.888301e+01
2.539074e+00	-1.890677e+01
2.500011e+00	-1.893052e+01
2.460949e+00	-1.888301e+01
2.421886e+00	-1.888301e+01
2.382824e+00	-1.885926e+01
2.343761e+00	-1.885926e+01
2.304698e+00	-1.885926e+01
2.265636e+00	-1.876425e+01
2.226573e+00	-1.876425e+01
2.187511e+00	-1.878800e+01
2.148448e+00	-1.890677e+01
2.109386e+00	-1.890677e+01
2.070323e+00	-1.890677e+01
2.031260e+00	-1.890677e+01
1.992198e+00	-1.881176e+01
1.953135e+00	-1.883551e+01
1.914073e+00	-1.888301e+01
1.875010e+00	-1.885926e+01
1.835948e+00	-1.883551e+01
1.796885e+00	-1.878800e+01
1.757823e+00	-1.897802e+01
1.718760e+00	-1.897802e+01
1.679698e+00	-1.890677e+01
1.640636e+00	-1.893052e+01
1.601573e+00	-1.890677e+01
1.562511e+00	-1.890677e+01
1.523448e+00	-1.881176e+01
1.484386e+00	-1.883551e+01
1.445323e+00	-1.876425e+01
1.406261e+00	-1.874050e+01
1.367198e+00	-1.876425e+01
1.328136e+00	-1.883551e+01
1.289073e+00	-1.888301e+01
1.250011e+00	-1.888301e+01
1.210949e+00	-1.885926e+01
1.171886e+00	-1.881176e+01
1.132824e+00	-1.874050e+01
1.093761e+00	-1.876425e+01
1.054699e+00	-1.876425e+01
1.015636e+00	-1.876425e+01
9.765738e-01	-1.878800e+01
9.375113e-01	-1.890677e+01
8.984488e-01	-1.883551e+01
8.593863e-01	-1.883551e+01
8.203237e-01	-1.883551e+01
7.812612e-01	-1.878800e+01
7.421987e-01	-1.876425e+01
7.031362e-01	-1.876425e+01
6.640737e-01	-1.881176e+01
6.250112e-01	-1.878800e+01
5.859487e-01	-1.866924e+01
5.468862e-01	-1.885926e+01
5.078236e-01	-1.890677e+01
4.687611e-01	-1.888301e+01
4.296986e-01	-1.885926e+01
3.906361e-01	-1.883551e+01
3.515736e-01	-1.881176e+01
3.125111e-01	-1.885926e+01
2.734486e-01	-1.883551e+01
2.343861e-01	-1.878800e+01
1.953236e-01	-1.874050e+01
1.562611e-01	-1.876425e+01
1.171986e-01	-1.890677e+01
7.813607e-02	-1.883551e+01
3.907357e-02	-1.883551e+01
1.106315e-05	-1.885926e+01
